$SUMMARY
Experiment Type : Titration
Experiment Name : 101504bc, Number : 1
Experiment Description : PTD+PHS;P153.8;B125mMMOPS;S1100mMKCl;pH7.0;DNGdn;D240;
Software Version : v3.00
Experiment start time : 10/15/2004  09:00:20
Wavelength       : 222.00 nm
Bandwidth        :  1.00 nm
Temp. Setpoint   : 25.00 deg C
Domain 1: 0 molar -> 2 molar  in 0.1 molar steps:
Domain 2: 2 molar -> 2.8 molar  in 0.1 molar steps:
Domain 3: 2.8 molar -> 4.2 molar  in 0.1 molar steps:
Averaging Time   : 30.000 seconds
Number of Shots  : 42

$DATA
$MDCNAME:
$MDCDATA:1:14:2:3:4:10:11:9:12:18:20
 X  CD_Signal  CD_Error  CD_Current_(Abs)  CD_Delta_Absorbance  CD_Dynode  QC_Signal  QC_Dynode  Jacket_Temp.  Probe_Temp.  Samp._Conc.  Inj._Vol._ul.
 0         -39.80305  0.58876    1.00857    -0.40144   321.75021  0.00095106  -0.67813   24.97106   -50.00000  1.00000    0         
 0.100     -39.15041  0.61658    1.00860    -0.39487   321.17325  0.00102    -0.67813   24.99067   -50.00000  0.98424    31.51591  
 0.200     -38.49716  0.55772    1.00861    -0.38828   320.14786  0.00104    -0.70684   24.99067   -50.00000  0.96848    32.02049  
 0.300     -37.85778  0.69101    1.00859    -0.38183   319.73907  0.00115    -0.69043   24.99067   -50.00000  0.95273    32.54149  
 0.400     -37.28548  0.63526    1.00862    -0.37607   319.22635  0.00120    -0.69727   24.97106   -50.00000  0.93697    33.07972  
 0.500     -36.39938  0.68754    1.00863    -0.36713   318.40195  0.00129    -0.66856   25.00047   -50.00000  0.92121    33.63606  
 0.600     -35.55253  0.62230    1.00863    -0.35859   317.60077  0.00134    -0.69180   24.98086   -50.00000  0.90545    34.21143  
 0.700     -34.92773  0.56629    1.00865    -0.35230   317.17419  0.00142    -0.67950   24.98086   -50.00000  0.88969    34.80682  
 0.800     -34.42640  0.56978    1.00863    -0.34724   316.48923  0.00149    -0.69180   24.97106   -50.00000  0.87394    35.42331  
 0.900     -33.66579  0.54504    1.00862    -0.33956   315.80292  0.00159    -0.68770   25.00047   -50.00000  0.85818    36.06203  
 1.000     -33.09933  0.54294    1.00866    -0.33386   315.09607  0.00161    -0.68770   24.99067   -50.00000  0.84242    36.72420  
 1.100     -32.24919  0.55854    1.00865    -0.32528   314.44666  0.00172    -0.68086   24.99067   -50.00000  0.82666    37.41115  
 1.200     -31.43114  0.49188    1.00864    -0.31703   313.77536  0.00167    -0.70411   24.99067   -50.00000  0.81090    38.12429  
 1.300     -30.66903  0.56551    1.00866    -0.30935   313.09998  0.00175    -0.67813   24.98086   -50.00000  0.79515    38.86514  
 1.400     -30.05517  0.54471    1.00865    -0.30315   312.42593  0.00172    -0.67950   24.97106   -50.00000  0.77939    39.63535  
 1.500     -29.37168  0.46164    1.00869    -0.29627   311.72867  0.00187    -0.67403   25.00047   -50.00000  0.76363    40.43672  
 1.600     -28.44455  0.48613    1.00867    -0.28691   311.08334  0.00190    -0.65899   24.97106   -50.00000  0.74787    41.27115  
 1.700     -27.73425  0.65904    1.00868    -0.27975   310.37378  0.00191    -0.66446   24.98086   -50.00000  0.73211    42.14075  
 1.800     -26.86492  0.55360    1.00869    -0.27098   309.67239  0.00199    -0.68223   24.98086   -50.00000  0.71636    43.04778  
 1.900     -25.71995  0.53388    1.00868    -0.25943   309.60269  0.00200    -0.67676   24.99067   -50.00000  0.70060    43.99472  
 2.000     -24.37298  0.48883    1.00868    -0.24584   308.35443  0.00204    -0.67676   24.99067   -50.00000  0.68484    44.98426  
 2.100     -21.83743  0.52932    1.00866    -0.22027   307.53958  0.00221    -0.69317   24.99067   -50.00000  0.66908    46.01933  
 2.200     -18.69657  0.53090    1.00866    -0.18858   306.57709  0.00238    -0.69317   24.97106   -50.00000  0.65332    47.10316  
 2.300     -14.32998  0.54979    1.00866    -0.14454   305.67471  0.00248    -0.68907   25.00047   -50.00000  0.63757    48.23927  
 2.400     -9.51465   0.48072    1.00864    -0.09597   305.01437  0.00259    -0.68496   24.99067   -50.00000  0.62181    49.43154  
 2.500     -5.64633   0.48608    1.00867    -0.05695   304.25696  0.00264    -0.68907   24.97106   -50.00000  0.60605    50.68424  
 2.600     -3.35147   0.45886    1.00862    -0.03380   303.54190  0.00273    -0.70684   24.97106   -50.00000  0.59029    52.00208  
 2.700     -2.13010   0.44199    1.00866    -0.02149   302.86652  0.00265    -0.71641   25.00047   -50.00000  0.57454    53.39028  
 2.800     -1.43646   0.49022    1.00860    -0.01449   302.79953  0.00266    -0.70411   25.00047   -50.00000  0.55878    54.85463  
 2.900     -1.00314   0.46414    1.00863    -0.01012   302.09268  0.00260    -0.71504   24.99067   -50.00000  0.54302    56.40158  
 3.000     -0.62804   0.40281    1.00866    -0.00633   301.48016  0.00257    -0.73829   24.97106   -50.00000  0.52726    58.03830  
 3.100     -0.32387   0.46599    1.00866    -0.00327   300.76376  0.00259    -0.69043   25.00047   -50.00000  0.51150    59.77286  
 3.200     -0.15988   0.49589    1.00870    -0.00161   300.14853  0.00255    -0.70957   25.00047   -50.00000  0.49575    61.61430  
 3.300     0.06282    0.51731    1.00869    0.0006336  299.84363  0.00264    -0.70274   25.00047   -50.00000  0.47999    63.57279  
 3.400     0.36378    0.45321    1.00861    0.00367    299.35419  0.00260    -0.71094   24.99067   -50.00000  0.46423    65.65988  
 3.500     0.41965    0.53121    1.00874    0.00423    298.67468  0.00262    -0.72598   24.97106   -50.00000  0.44847    67.88866  
 3.600     0.84277    0.45457    1.00869    0.00850    298.18524  0.00268    -0.72188   24.98086   -50.00000  0.43271    70.27407  
 3.700     0.79541    0.50339    1.00869    0.00802    297.36356  0.00261    -0.71504   24.98086   -50.00000  0.41696    72.83321  
 3.800     0.92087    0.42007    1.00869    0.00929    296.81668  0.00262    -0.70137   25.00047   -50.00000  0.40120    75.58579  
 3.900     1.28780    0.43138    1.00870    0.01299    296.42566  0.00259    -0.73555   24.98086   -50.00000  0.38544    78.55460  
 4.000     1.32756    0.48383    1.00876    0.01339    295.99500  0.00266    -0.72051   24.99067   -50.00000  0.36968    81.76615  
 4.100     1.55181    0.45583    1.00875    0.01565    295.30457  0.00262    -0.70411   24.97106   -50.00000  0.35392    85.25150  
 4.200     1.61539    0.49842    1.00878    0.01630    294.80005  0.00267    -0.71778   25.00047   -50.00000  0.33817    89.04720  
$ENDDATA

$CONFIGURATION
$EXPNAME:101504bc #1
$NDATAPOINTS:43
$VERSION:v3.00
$EXTYPE:4
$EXNAME:101504bc
$EXDESC:PTD+PHS;P153.8;B125mMMOPS;S1100mMKCl;pH7.0;DNGdn;D240;
$EXNUMBER:1
$CDDC:1.005000
$CDHV:280.000000
$FLHV:75.000000
$QCHV:0.000000
$MONOWL:222.000000
$MONOBW:1.000000
$MONOSW:0.037779
$TEMPSP:25.000000
$TEMPDB:0.300000
$TEMPSYROFF:0.000000
$TEMPRATE:10.000000
$TEMPET:0.010000
$WLSTART:260.000000
$WLEND:200.000000
$WLEVERY:1.000000
$WLFILTER:1.000000
$WLREPEATS:1
$WLWAIT:0.000000
$WLSS:1
$KINSTART:0.000000
$KINEND:3600.000000
$KININTERVAL:60.000000
$KINTC:0.500000
$KINROTLOOPTIME:0.000000
$TEMPSTART:25.000000
$TEMPEND:30.000000
$TEMPSTEP:1.000000
$TEMPSS:1
$AVETIME:30.000000
$TEMPREVERSESCAN:0
$TEMPHOLDTIME
$TEMPRETURN:1
$CONCINITTITRANT:0         
$CONCSYRTITRANT:6.346     
$CONCINITSAMPLE:1         
$CONCSYRSAMPLE:0         
$CONCCELLVOL:2.000000
$CONCAVETIME:30.000000
$CONCTARGET0:2         
$CONCTARGET1:2.8       
$CONCTARGET2:4.2       
$CONCSTEP0:0.1       
$CONCSTEP1:0.1       
$CONCSTEP2:0.1       
$CONCINCREASEVOL:0
$CONCCELLMAX:2.800000
$CONCCELLMIN:1.000000
$CONCSTIRTIME:5.000000
$PHEND:1.500000
$PHINTERVAL:0.100000
$PHSTIRTIME:2.000000
$PHMAXVOL:1800.000000
$PHDB:0.010000
$PHINCREASE:0.000000
$PHCELLVOL:2700.000000
$PHINITSYR:0         
$PHINITCELL:1e-006    
$FLAVETIME:0.500000
$FLWL:474.000000
$STIRVALUE:50
$STIRDURING:1
$STIRDELAYTIME:0.100000
$ROTENABLE:1
$ROTSTIRTIME:0.100000
$ROTDESC1:
$ROTDESC2:
$ROTDESC3:
$ROTDESC4:
$ROTDESC5:
$SAVEBITS:202319
$STRINGENCY:4
$ERRORLEVEL:3
$ABSORB:3.500000
$DSPATH:C:\AVIV\EXPERIMENTS
$PMTMODE:1
$QCCORRECT:0
$AUTOSLIT:1
$ECOUNT:100
$COLLECT:1
$STDDEVLIM:1.000000
$ABSERROR:1.000000
$DABSERROR:1.000000
$MDY:10:15:2004
$HMS:9:0:20
$SYRTVOL0:500.000000
$SYRTVOL1:500.000000
$TSYRDESC1:
$TSYRDESC2:
$CDOFFSET:0.000000
$COLORTABLE:0:0:0:255
$COLORTABLE:1:0:255:0
$COLORTABLE:2:255:0:0
$COLORTABLE:3:255:0:255
$COLORTABLE:4:255:255:0
$COLORTABLE:5:0:0:192
$COLORTABLE:6:0:192:0
$COLORTABLE:7:0:192:192
$COLORTABLE:8:192:0:0
$COLORTABLE:9:192:0:192
$COLORTABLE:10:192:192:0
$COLORTABLE:11:192:192:192
$COLORTABLE:12:112:112:240
$COLORTABLE:13:112:240:112
$COLORTABLE:14:112:240:240
$COLORTABLE:15:240:112:112
$COLORTABLE:16:240:240:112
$COLORTABLE:17:192:192:240
$COLORTABLE:18:192:240:192
$COLORTABLE:19:192:240:240
$COLORTABLE:20:0:255:0
$COLORTABLE:21:0:255:255
$COLORTABLE:22:255:0:0
$COLORTABLE:23:255:0:255
$COLORTABLE:24:255:255:0
$COLORTABLE:25:0:0:192
$COLORTABLE:26:0:192:0
$COLORTABLE:27:0:192:192
$COLORTABLE:28:112:112:192
$COLORTABLE:29:112:192:112
$COLORTABLE:30:112:192:192
$COLORTABLE:31:192:112:112
$COLORTABLE:32:192:112:192
$COLORTABLE:33:192:192:112
$COLORTABLE:34:192:192:192
$COLORTABLE:35:80:80:160
$COLORTABLE:36:80:160:80
$COLORTABLE:37:80:160:160
$COLORTABLE:38:160:80:80
$COLORTABLE:39:160:80:160
$COLORTABLE:40:160:160:80
$COLORTABLE:41:160:160:160
$COLORTABLE:42:144:144:144
$COLORTABLE:43:144:144:224
$COLORTABLE:44:144:224:144
$COLORTABLE:45:144:224:224
$COLORTABLE:46:224:144:144
$COLORTABLE:47:224:144:224
$ENDCONFIGURATION