$SUMMARY
Experiment Type : Wavelength
Experiment Name : 080812_dpphs_pH7, Number : 8
Experiment Description : 080812_dpphs_pH7
Software Version : v3.12
Experiment start time : 08/12/2008  08:55:05
Bandwidth        :  1.00 nm
Temp. Setpoint   : 25.00 deg C
Wavelength Start : 250.00 nm
Wavelength End   : 200.00 nm
Wavelength Step  :  1.00 nm
Averaging Time   : 5.000 seconds
Settling Time    : 0.333 seconds
Multi-Scan Wait  :  0.10 seconds

$DATA
$MDCNAME:
$MDCDATA:1:14:2:3:4:9:12:13:15
 X  CD_Signal  CD_Error  CD_Current_(Abs)  CD_Delta_Absorbance  CD_Dynode  Jacket_Temp.  Probe_Temp.  Elapsed_Time  _pH_
250.000  -0.200  0.416  1.006  -0.002  305.8  24.98  -50.00  36.093  0.000
249.000  -0.407  0.410  1.006  -0.004  306.7  24.99  -50.00  42.468  0.000
248.000  -0.536  0.295  1.006  -0.005  307.2  24.98  -50.00  48.843  0.000
247.000  -0.747  0.404  1.006  -0.008  307.8  25.00  -50.00  54.422  0.000
246.000  -1.293  0.303  1.006  -0.013  308.2  24.99  -50.00  60.797  0.000
245.000  -1.571  0.297  1.006  -0.016  309.3  25.00  -50.00  67.172  0.000
244.000  -2.044  0.414  1.006  -0.021  309.8  24.97  -50.00  73.547  0.000
243.000  -2.844  0.430  1.005  -0.029  311.1  24.99  -50.00  79.125  0.000
242.000  -3.461  0.296  1.006  -0.035  311.9  24.99  -50.00  85.500  0.000
241.000  -4.314  0.339  1.005  -0.043  313.6  24.99  -50.00  91.875  0.000
240.000  -5.750  0.400  1.005  -0.058  315.9  25.00  -50.00  97.453  0.000
239.000  -7.019  0.291  1.005  -0.071  317.6  24.97  -50.00  103.828  0.000
238.000  -8.752  0.255  1.005  -0.088  320.0  25.00  -50.00  110.203  0.000
237.000  -10.862  0.384  1.005  -0.109  322.8  24.98  -50.00  116.578  0.000
236.000  -12.982  0.395  1.005  -0.131  325.5  25.01  -50.00  122.953  0.000
235.000  -15.776  0.333  1.005  -0.159  329.3  24.99  -50.00  129.328  0.000
234.000  -19.022  0.475  1.005  -0.191  332.9  24.98  -50.00  134.906  0.000
233.000  -22.134  0.445  1.005  -0.222  337.2  24.98  -50.00  141.281  0.000
232.000  -26.109  0.671  1.005  -0.262  341.2  25.00  -50.00  147.656  0.000
231.000  -29.528  0.558  1.005  -0.297  345.9  25.00  -50.00  154.031  0.000
230.000  -33.147  0.645  1.005  -0.333  350.5  24.98  -50.00  160.406  0.000
229.000  -36.929  0.510  1.005  -0.371  354.9  24.99  -50.00  166.781  0.000
228.000  -39.790  0.624  1.005  -0.400  359.0  24.99  -50.00  172.359  0.000
227.000  -42.198  0.753  1.004  -0.424  363.2  24.98  -50.00  178.734  0.000
226.000  -44.050  0.705  1.004  -0.442  366.7  24.99  -50.00  185.109  0.000
225.000  -45.477  0.708  1.004  -0.457  370.0  24.99  -50.00  191.484  0.000
224.000  -46.585  0.378  1.004  -0.468  373.1  24.99  -50.00  197.859  0.000
223.000  -46.389  0.485  1.004  -0.466  376.4  24.98  -50.00  204.234  0.000
222.000  -48.143  0.706  1.004  -0.483  379.6  24.99  -50.00  209.812  0.000
221.000  -47.216  0.546  1.004  -0.474  382.5  25.00  -50.00  216.187  0.000
220.000  -46.903  0.770  1.004  -0.471  386.4  24.98  -50.00  222.562  0.000
219.000  -46.384  0.857  1.004  -0.466  390.3  24.98  -50.00  229.203  0.000
218.000  -46.600  0.693  1.004  -0.468  394.6  25.00  -50.00  234.781  0.000
217.000  -45.527  0.590  1.004  -0.457  399.0  24.99  -50.00  241.156  0.000
216.000  -45.333  1.284  1.004  -0.455  404.4  24.99  -50.00  247.531  0.000
215.000  -43.929  1.154  1.004  -0.441  411.1  25.00  -50.00  253.906  0.000
214.000  -43.656  0.831  1.003  -0.438  418.8  24.98  -50.00  260.281  0.000
213.000  -43.480  0.898  1.003  -0.436  427.6  24.99  -50.00  266.672  0.000
212.000  -43.441  1.202  1.003  -0.436  437.9  24.99  -50.00  273.046  0.000
211.000  -44.367  1.216  1.003  -0.445  450.4  25.00  -50.00  279.421  0.000
210.000  -44.742  1.613  1.003  -0.449  464.9  24.98  -50.00  285.796  0.000
209.000  -47.166  1.621  1.002  -0.473  486.2  24.99  -50.00  292.171  0.000
208.000  -47.839  2.185  1.002  -0.479  510.4  24.99  -50.00  298.546  0.000
207.000  -45.952  2.091  1.001  -0.460  541.3  25.00  -50.00  304.717  0.000
206.000  -44.842  2.253  1.001  -0.449  580.1  24.99  -50.00  311.092  0.000
205.000  -39.746  4.628  1.000  -0.397  630.5  24.99  -50.00  317.467  0.000
204.000  -35.129  7.063  0.998  -0.351  696.3  24.98  -50.00  323.842  0.000
203.000  -23.163  10.245  0.996  -0.231  782.3  24.99  -50.00  330.217  0.000
202.000  -7.525  14.246  0.994  -0.075  897.2  24.99  -50.00  336.592  0.000
201.000  -4.091  22.221  0.991  -0.040  1028.6  25.00  -50.00  342.967  0.000
200.000  16.308  34.815  0.990  0.162  1109.9  24.98  -50.00  349.342  0.000
$ENDDATA

$CONFIGURATION
$EXPNAME:080812_dpphs_pH7 #8
$NDATAPOINTS:51
$VERSION:v3.12
$EXTYPE:1
$EXNAME:080812_dpphs_pH7
$EXDESC:080812_dpphs_pH7
$EXNUMBER:8
$CDDC:1.005000
$CDHV:280.000000
$FLHV:75.000000
$QCHV:0.000000
$MONOWL:250.000000
$MONOBW:1.000000
$MONOSW:0.660007
$TEMPSP:25.000000
$TEMPDB:0.100000
$TEMPSYROFF:0.000000
$TEMPRATE:10.000000
$TEMPET:0.500000
$WLSTART:250.000000
$WLEND:200.000000
$WLEVERY:1.000000
$WLFILTER:0.333000
$WLREPEATS:1
$WLWAIT:0.100000
$WLSS:1
$FLSCSTART:400.000000
$FLSCEND:300.000000
$FLSCSTEP:1.000000
$FLSCREPEATS:1
$FLSCWAITTIME:0.000000
$FLSCAVETIME:1.000000
$FWLWL:500.000000
$KINSTART:0.000000
$KINEND:600.000000
$KININTERVAL:1.000000
$KINTC:0.500000
$KINROTLOOPTIME:0.000000
$TEMPSTART:20.000000
$TEMPEND:70.000000
$TEMPSTEP:1.000000
$TEMPSS:0
$TEMPSCHEDULE0: 20.00
$TEMPSCHEDULE1: 22.50
$TEMPSCHEDULE2: 25.00
$TEMPSCHEDULE3: 27.50
$TEMPSCHEDULE4: 30.00
$TEMPSCHEDULE5: 31.00
$TEMPSCHEDULE6: 32.00
$TEMPSCHEDULE7: 33.00
$TEMPSCHEDULE8: 34.00
$TEMPSCHEDULE9: 35.00
$TEMPSCHEDULE10: 36.00
$TEMPSCHEDULE11: 36.50
$TEMPSCHEDULE12: 37.00
$TEMPSCHEDULE13: 37.50
$TEMPSCHEDULE14: 38.00
$TEMPSCHEDULE15: 38.50
$TEMPSCHEDULE16: 39.00
$TEMPSCHEDULE17: 39.50
$TEMPSCHEDULE18: 40.00
$TEMPSCHEDULE19: 40.50
$TEMPSCHEDULE20: 41.00
$TEMPSCHEDULE21: 41.50
$TEMPSCHEDULE22: 42.00
$TEMPSCHEDULE23: 42.50
$TEMPSCHEDULE24: 43.00
$TEMPSCHEDULE25: 44.00
$TEMPSCHEDULE26: 45.00
$TEMPSCHEDULE27: 46.00
$TEMPSCHEDULE28: 47.00
$TEMPSCHEDULE29: 48.00
$TEMPSCHEDULE30: 49.00
$TEMPSCHEDULE31: 50.00
$TEMPSCHEDULE32: 52.00
$TEMPSCHEDULE33: 54.00
$TEMPSCHEDULE34: 56.00
$TEMPSCHEDULE35: 58.00
$TEMPSCHEDULE36: 60.00
$TEMPSCHEDULE37: 62.50
$TEMPSCHEDULE38: 65.00
$TEMPSCHEDULE39: 67.50
$TEMPSCHEDULE40: 70.00
$AVETIME:5.000000
$TEMPREVERSESCAN:0
$TEMPHOLDTIME
$TEMPRETURN:1
$CONCINITTITRANT:0         
$CONCSYRTITRANT:6.215     
$CONCINITSAMPLE:1         
$CONCSYRSAMPLE:0         
$CONCCELLVOL:2.000000
$CONCAVETIME:30.000000
$CONCTARGET0:1.5       
$CONCTARGET1:3         
$CONCTARGET2:4         
$CONCSTEP0:0.1       
$CONCSTEP1:0.1       
$CONCSTEP2:0.1       
$CONCINCREASEVOL:0
$CONCCELLMAX:2.800000
$CONCCELLMIN:1.000000
$CONCSTIRTIME0:5.000000
$CONCSTIRTIME1:40.000000
$CONCSTIRTIME2:5.000000
$PHEND:1.000000
$PHINTERVAL:0.100000
$PHSTIRTIME:2.500000
$PHMAXVOL:1300.000000
$PHDB:0.040000
$PHINCREASE:0
$PHCELLVOL:2400.000000
$PHINITSYR:0         
$PHINITCELL:1         
$FLAVETIME:0.500000
$FLWL:473.799988
$STIRVALUE:70
$STIRDURING:1
$STIRDELAYTIME:0.100000
$ROTENABLE:1
$ROTSTIRTIME:0.100000
$ROTDESC1:
$ROTDESC2:
$ROTDESC3:
$ROTDESC4:
$ROTDESC5:
$SAVEBITS:241743
$STRINGENCY:4
$ERRORLEVEL:3
$ABSORB:3.500000
$DSPATH:C:\aviv\experiments_2008
$PMTMODE:1
$QCCORRECT:0
$AUTOSLIT:0
$ECOUNT:100
$COLLECT:1
$STDDEVLIM:1.000000
$ABSERROR:1.000000
$DABSERROR:1.000000
$MDY:8:12:2008
$HMS:8:55:5
$SYRTVOL0:500.000000
$SYRTVOL1:500.000000
$TSYRDESC1:
$TSYRDESC2:
$CDOFFSET:0.000000
$SEWHILE:1
$SEINTERVAL:30
$SAVEHDALWAYS:1
$COLORTABLE:0:0:0:255
$COLORTABLE:1:0:255:0
$COLORTABLE:2:255:0:0
$COLORTABLE:3:255:0:255
$COLORTABLE:4:255:255:0
$COLORTABLE:5:0:0:192
$COLORTABLE:6:0:192:0
$COLORTABLE:7:0:192:192
$COLORTABLE:8:192:0:0
$COLORTABLE:9:192:0:192
$COLORTABLE:10:192:192:0
$COLORTABLE:11:192:192:192
$COLORTABLE:12:112:112:240
$COLORTABLE:13:112:240:112
$COLORTABLE:14:112:240:240
$COLORTABLE:15:240:112:112
$COLORTABLE:16:240:240:112
$COLORTABLE:17:192:192:240
$COLORTABLE:18:192:240:192
$COLORTABLE:19:192:240:240
$COLORTABLE:20:0:255:0
$COLORTABLE:21:0:255:255
$COLORTABLE:22:255:0:0
$COLORTABLE:23:255:0:255
$COLORTABLE:24:255:255:0
$COLORTABLE:25:0:0:192
$COLORTABLE:26:0:192:0
$COLORTABLE:27:0:192:192
$COLORTABLE:28:112:112:192
$COLORTABLE:29:112:192:112
$COLORTABLE:30:112:192:192
$COLORTABLE:31:192:112:112
$COLORTABLE:32:192:112:192
$COLORTABLE:33:192:192:112
$COLORTABLE:34:192:192:192
$COLORTABLE:35:80:80:160
$COLORTABLE:36:80:160:80
$COLORTABLE:37:80:160:160
$COLORTABLE:38:160:80:80
$COLORTABLE:39:160:80:160
$COLORTABLE:40:160:160:80
$COLORTABLE:41:160:160:160
$COLORTABLE:42:144:144:144
$COLORTABLE:43:144:144:224
$COLORTABLE:44:144:224:144
$COLORTABLE:45:144:224:224
$COLORTABLE:46:224:144:144
$COLORTABLE:47:224:144:224
$ENDCONFIGURATION